t (s)	q (C)
0	2.90401051193e-23
1e-20	5.71418997971e-23
2e-20	8.43330392538e-23
2.9999999999999997e-20	1.1064038449e-22
4e-20	1.360900248e-22
5e-20	1.60707299658e-22
5.999999999999999e-20	1.84516819993e-22
6.999999999999999e-20	2.07542488868e-22
7.999999999999998e-20	2.29807521581e-22
8.999999999999998e-20	2.51334465208e-22
9.999999999999997e-20	2.7214521759e-22
1.0999999999999997e-19	2.92261045797e-22
1.1999999999999996e-19	3.11702604069e-22
1.2999999999999996e-19	3.30489951254e-22
1.3999999999999995e-19	3.48642567759e-22
1.4999999999999995e-19	3.66179372022e-22
1.5999999999999994e-19	3.8311873652e-22
1.6999999999999994e-19	3.99478503332e-22
1.7999999999999993e-19	4.15275999259e-22
1.8999999999999993e-19	4.30528050522e-22
1.9999999999999992e-19	4.45250997037e-22
2.0999999999999992e-19	4.59460706302e-22
2.1999999999999994e-19	4.73172586881e-22
2.2999999999999993e-19	4.86401601509e-22
2.3999999999999993e-19	4.99162279832e-22
2.499999999999999e-19	5.11468730782e-22
2.599999999999999e-19	5.23334654602e-22
2.699999999999999e-19	5.34773354539e-22
2.799999999999999e-19	5.4579774819e-22
2.899999999999999e-19	5.56420378547e-22
2.999999999999999e-19	5.66653424712e-22
3.099999999999999e-19	5.76508712316e-22
3.199999999999999e-19	5.85997723645e-22
3.299999999999999e-19	5.95131607473e-22
3.399999999999999e-19	6.03921188617e-22
3.4999999999999987e-19	6.12376977226e-22
3.5999999999999987e-19	6.205091778e-22
3.6999999999999986e-19	6.28327697957e-22
3.7999999999999986e-19	6.35842156945e-22
3.8999999999999985e-19	6.43061893922e-22
3.9999999999999985e-19	6.49995975989e-22
4.0999999999999984e-19	6.56653206004e-22
4.1999999999999984e-19	6.63042130166e-22
4.2999999999999983e-19	6.69171045389e-22
4.399999999999999e-19	6.75048006462e-22
4.499999999999999e-19	6.80680833009e-22
4.6e-19	6.86077116242e-22
4.7e-19	6.91244225535e-22
4.8e-19	6.96189314797e-22
4.900000000000001e-19	7.00919328673e-22
5.000000000000001e-19	7.05441008559e-22
5.100000000000002e-19	7.09760898457e-22
5.200000000000002e-19	7.13885350651e-22
5.300000000000003e-19	7.17820531228e-22
5.400000000000003e-19	7.21572425439e-22
5.500000000000003e-19	7.25146842904e-22
5.600000000000004e-19	7.28549422678e-22
5.700000000000004e-19	7.31785638158e-22
5.800000000000005e-19	7.3486080186e-22
5.900000000000005e-19	7.37780070056e-22
6.000000000000006e-19	7.40548447278e-22
6.100000000000006e-19	7.43170790695e-22
6.2000000000000065e-19	7.4565181436e-22
6.300000000000007e-19	7.47996093341e-22
6.400000000000007e-19	7.50208067731e-22
6.500000000000008e-19	7.52292046541e-22
6.600000000000008e-19	7.54252211488e-22
6.700000000000009e-19	7.56092620664e-22
6.800000000000009e-19	7.57817212111e-22
6.9000000000000095e-19	7.59429807287e-22
7.00000000000001e-19	7.60934114432e-22
7.10000000000001e-19	7.62333731841e-22
7.200000000000011e-19	7.63632151042e-22
7.300000000000011e-19	7.6483275988e-22
7.400000000000012e-19	7.65938845517e-22
7.500000000000012e-19	7.66953597343e-22
7.600000000000013e-19	7.67880109801e-22
7.700000000000013e-19	7.6872138514e-22
7.800000000000013e-19	7.69480336075e-22
7.900000000000014e-19	7.70159788387e-22
8.000000000000014e-19	7.7076248343e-22
8.100000000000015e-19	7.71291080583e-22
8.200000000000015e-19	7.71748159624e-22
8.300000000000016e-19	7.72136223028e-22
8.400000000000016e-19	7.72457698218e-22
8.500000000000016e-19	7.7271493973e-22
8.600000000000017e-19	7.72910231332e-22
8.700000000000017e-19	7.73045788075e-22
8.800000000000017e-19	7.73123758282e-22
8.900000000000016e-19	7.7314622549e-22
9.000000000000016e-19	7.73115210324e-22
9.100000000000015e-19	7.73032672325e-22
9.200000000000015e-19	7.72900511725e-22
9.300000000000014e-19	7.72720571166e-22
9.400000000000014e-19	7.72494637376e-22
9.500000000000013e-19	7.72224442789e-22
9.600000000000012e-19	7.71911667129e-22
9.700000000000012e-19	7.71557938935e-22
9.800000000000011e-19	7.71164837057e-22
9.90000000000001e-19	7.70733892093e-22
1.000000000000001e-18	7.70266587799e-22
1.010000000000001e-18	7.69764362451e-22
1.020000000000001e-18	7.69228610168e-22
1.0300000000000009e-18	7.68660682196e-22
1.0400000000000008e-18	7.68061888162e-22
1.0500000000000008e-18	7.6743349728e-22
1.0600000000000007e-18	7.66776739536e-22
1.0700000000000007e-18	7.66092806827e-22
1.0800000000000006e-18	7.65382854074e-22
1.0900000000000006e-18	7.646480003e-22
1.1000000000000005e-18	7.63889329679e-22
1.1100000000000004e-18	7.63107892552e-22
1.1200000000000004e-18	7.62304706418e-22
1.1300000000000003e-18	7.6148075689e-22
1.1400000000000003e-18	7.60636998632e-22
1.1500000000000002e-18	7.5977435626e-22
1.1600000000000002e-18	7.58893725223e-22
1.1700000000000001e-18	7.57995972657e-22
1.18e-18	7.57081938214e-22
1.19e-18	7.56152434865e-22
1.2e-18	7.55208249689e-22
1.21e-18	7.54250144623e-22
1.2199999999999999e-18	7.53278857207e-22
1.2299999999999998e-18	7.52295101297e-22
1.2399999999999998e-18	7.51299567762e-22
1.2499999999999997e-18	7.50292925157e-22
1.2599999999999997e-18	7.49275820383e-22
1.2699999999999996e-18	7.48248879323e-22
1.2799999999999995e-18	7.47212707457e-22
1.2899999999999995e-18	7.46167890468e-22
1.2999999999999994e-18	7.45114994824e-22
1.3099999999999994e-18	7.44054568344e-22
1.3199999999999993e-18	7.42987140747e-22
1.3299999999999993e-18	7.41913224189e-22
1.3399999999999992e-18	7.40833313783e-22
1.3499999999999992e-18	7.397478881e-22
1.3599999999999991e-18	7.38657409658e-22
1.369999999999999e-18	7.37562325403e-22
1.379999999999999e-18	7.36463067164e-22
1.389999999999999e-18	7.35360052105e-22
1.399999999999999e-18	7.34253683159e-22
1.4099999999999989e-18	7.33144349454e-22
1.4199999999999988e-18	7.32032426718e-22
1.4299999999999987e-18	7.30918277683e-22
1.4399999999999987e-18	7.29802252467e-22
1.4499999999999986e-18	7.28684688956e-22
1.4599999999999986e-18	7.27565913165e-22
1.4699999999999985e-18	7.26446239593e-22
1.4799999999999985e-18	7.2532597157e-22
1.4899999999999984e-18	7.24205401588e-22
1.4999999999999984e-18	7.23084811626e-22
1.5099999999999983e-18	7.21964473469e-22
1.5199999999999983e-18	7.20844649011e-22
1.5299999999999982e-18	7.19725590553e-22
1.5399999999999982e-18	7.18607541091e-22
1.5499999999999981e-18	7.17490734598e-22
1.559999999999998e-18	7.16375396297e-22
1.569999999999998e-18	7.15261742921e-22
1.579999999999998e-18	7.14149982976e-22
1.5899999999999979e-18	7.13040316984e-22
1.5999999999999978e-18	7.1193293773e-22
1.6099999999999978e-18	7.10828030495e-22
1.6199999999999977e-18	7.09725773286e-22
1.6299999999999977e-18	7.08626337052e-22
1.6399999999999976e-18	7.07529885909e-22
1.6499999999999976e-18	7.06436577339e-22
1.6599999999999975e-18	7.05346562399e-22
1.6699999999999975e-18	7.04259985918e-22
1.6799999999999974e-18	7.03176986685e-22
1.6899999999999974e-18	7.02097697637e-22
1.6999999999999973e-18	7.01022246039e-22
1.7099999999999973e-18	6.99950753661e-22
1.7199999999999972e-18	6.98883336943e-22
1.7299999999999972e-18	6.97820107167e-22
1.7399999999999973e-18	6.96761170611e-22
1.7499999999999972e-18	6.95706628709e-22
1.759999999999997e-18	6.94656578201e-22
1.769999999999997e-18	6.93611111278e-22
1.779999999999997e-18	6.92570315727e-22
1.789999999999997e-18	6.91534275069e-22
1.799999999999997e-18	6.90503068691e-22
1.809999999999997e-18	6.8947677198e-22
1.819999999999997e-18	6.88455456445e-22
1.829999999999997e-18	6.87439189844e-22
1.8399999999999968e-18	6.86428036303e-22
1.8499999999999967e-18	6.85422056431e-22
1.8599999999999967e-18	6.84421307429e-22
1.8699999999999966e-18	6.83425843205e-22
1.8799999999999965e-18	6.82435714479e-22
1.8899999999999965e-18	6.81450968881e-22
1.8999999999999964e-18	6.80471651057e-22
1.9099999999999964e-18	6.79497802762e-22
1.9199999999999963e-18	6.78529462956e-22
1.9299999999999963e-18	6.77566667895e-22
1.9399999999999962e-18	6.76609451218e-22
1.949999999999996e-18	6.75657844037e-22
1.959999999999996e-18	6.74711875018e-22
1.969999999999996e-18	6.7377157046e-22
1.979999999999996e-18	6.72836954379e-22
1.989999999999996e-18	6.71908048581e-22
1.999999999999996e-18	6.70984872735e-22
2.009999999999996e-18	6.70067444449e-22
2.0199999999999958e-18	6.69155779336e-22
2.0299999999999957e-18	6.68249891086e-22
2.0399999999999957e-18	6.67349791526e-22
2.0499999999999956e-18	6.66455490691e-22
2.0599999999999956e-18	6.65566996878e-22
2.0699999999999955e-18	6.64684316713e-22
2.0799999999999955e-18	6.63807455208e-22
2.0899999999999954e-18	6.62936415814e-22
2.0999999999999954e-18	6.62071200479e-22
2.1099999999999953e-18	6.61211809702e-22
2.1199999999999953e-18	6.60358242582e-22
2.1299999999999952e-18	6.5951049687e-22
2.139999999999995e-18	6.58668569019e-22
2.149999999999995e-18	6.57832454227e-22
2.159999999999995e-18	6.5700214649e-22
2.169999999999995e-18	6.56177638637e-22
2.179999999999995e-18	6.55358922382e-22
2.189999999999995e-18	6.5454598836e-22
2.199999999999995e-18	6.53738826171e-22
2.2099999999999948e-18	6.52937424419e-22
2.2199999999999947e-18	6.52141770747e-22
2.2299999999999947e-18	6.51351851878e-22
2.2399999999999946e-18	6.5056765365e-22
2.2499999999999946e-18	6.49789161049e-22
2.2599999999999945e-18	6.49016358244e-22
2.2699999999999945e-18	6.48249228621e-22
2.2799999999999944e-18	6.47487754814e-22
2.2899999999999944e-18	6.46731918733e-22
2.2999999999999943e-18	6.459817016e-22
2.3099999999999943e-18	6.45237083972e-22
2.3199999999999942e-18	6.44498045771e-22
2.329999999999994e-18	6.43764566314e-22
2.339999999999994e-18	6.43036624336e-22
2.349999999999994e-18	6.42314198016e-22
2.359999999999994e-18	6.41597265004e-22
2.369999999999994e-18	6.40885802443e-22
2.379999999999994e-18	6.40179786991e-22
2.389999999999994e-18	6.39479194849e-22
2.3999999999999938e-18	6.38784001777e-22
2.4099999999999937e-18	6.38094183119e-22
2.4199999999999937e-18	6.3740971382e-22
2.4299999999999936e-18	6.3673056845e-22
2.4399999999999936e-18	6.36056721221e-22
2.4499999999999935e-18	6.35388146004e-22
2.4599999999999935e-18	6.34724816353e-22
2.4699999999999934e-18	6.34066705515e-22
2.4799999999999934e-18	6.33413786451e-22
2.4899999999999933e-18	6.32766031854e-22
2.4999999999999932e-18	6.3212341416e-22
2.509999999999993e-18	6.3148590557e-22
2.519999999999993e-18	6.30853478058e-22
2.529999999999993e-18	6.30226103388e-22
2.539999999999993e-18	6.29603753133e-22
2.549999999999993e-18	6.28986398679e-22
2.559999999999993e-18	6.28374011246e-22
2.569999999999993e-18	6.27766561897e-22
2.579999999999993e-18	6.27164021551e-22
2.5899999999999928e-18	6.26566360995e-22
2.5999999999999927e-18	6.25973550895e-22
2.6099999999999927e-18	6.25385561809e-22
2.6199999999999926e-18	6.24802364192e-22
2.6299999999999926e-18	6.24223928414e-22
2.6399999999999925e-18	6.23650224767e-22
2.6499999999999924e-18	6.2308122347e-22
2.6599999999999924e-18	6.22516894686e-22
2.6699999999999923e-18	6.21957208526e-22
2.6799999999999923e-18	6.2140213506e-22
2.6899999999999922e-18	6.20851644322e-22
2.699999999999992e-18	6.20305706324e-22
2.709999999999992e-18	6.19764291058e-22
2.719999999999992e-18	6.19227368508e-22
2.729999999999992e-18	6.18694908653e-22
2.739999999999992e-18	6.18166881479e-22
2.749999999999992e-18	6.17643256981e-22
2.759999999999992e-18	6.17124005173e-22
2.769999999999992e-18	6.16609096093e-22
2.7799999999999918e-18	6.16098499809e-22
2.7899999999999917e-18	6.15592186425e-22
2.7999999999999916e-18	6.15090126085e-22
2.8099999999999916e-18	6.14592288984e-22
2.8199999999999915e-18	6.14098645367e-22
2.8299999999999915e-18	6.13609165535e-22
2.8399999999999914e-18	6.13123819854e-22
2.8499999999999914e-18	6.12642578755e-22
2.8599999999999913e-18	6.12165412742e-22
2.8699999999999913e-18	6.11692292395e-22
2.8799999999999912e-18	6.11223188371e-22
2.889999999999991e-18	6.10758071414e-22
2.899999999999991e-18	6.10296912354e-22
2.909999999999991e-18	6.09839682114e-22
2.919999999999991e-18	6.0938635171e-22
2.929999999999991e-18	6.08936892257e-22
2.939999999999991e-18	6.08491274973e-22
2.949999999999991e-18	6.08049471179e-22
2.9599999999999908e-18	6.07611452303e-22
2.9699999999999907e-18	6.07177189885e-22
2.9799999999999907e-18	6.06746655578e-22
2.9899999999999906e-18	6.06319821151e-22
2.9999999999999906e-18	6.05896658489e-22
3.0099999999999905e-18	6.054771396e-22
3.0199999999999905e-18	6.05061236615e-22
3.0299999999999904e-18	6.04648921787e-22
3.0399999999999904e-18	6.042401675e-22
3.0499999999999903e-18	6.03834946264e-22
3.0599999999999903e-18	6.03433230722e-22
3.0699999999999902e-18	6.03034993647e-22
3.07999999999999e-18	6.02640207949e-22
3.08999999999999e-18	6.02248846672e-22
3.09999999999999e-18	6.01860882998e-22
3.10999999999999e-18	6.01476290248e-22
3.11999999999999e-18	6.01095041882e-22
3.12999999999999e-18	6.00717111502e-22
3.13999999999999e-18	6.00342472853e-22
3.1499999999999898e-18	5.99971099823e-22
3.1599999999999897e-18	5.99602966443e-22
3.1699999999999897e-18	5.99238046892e-22
3.1799999999999896e-18	5.98876315495e-22
3.1899999999999896e-18	5.98517746723e-22
3.1999999999999895e-18	5.98162315196e-22
3.2099999999999895e-18	5.97809995683e-22
3.2199999999999894e-18	5.974607631e-22
3.2299999999999894e-18	5.97114592516e-22
3.2399999999999893e-18	5.9677145915e-22
3.2499999999999893e-18	5.9643133837e-22
3.2599999999999892e-18	5.96094205697e-22
3.269999999999989e-18	5.95760036804e-22
3.279999999999989e-18	5.95428807515e-22
3.289999999999989e-18	5.95100493807e-22
3.299999999999989e-18	5.9477507181e-22
3.309999999999989e-18	5.94452517807e-22
3.319999999999989e-18	5.94132808234e-22
3.329999999999989e-18	5.93815919678e-22
3.3399999999999888e-18	5.93501828883e-22
3.3499999999999887e-18	5.93190512742e-22
3.3599999999999887e-18	5.92881948306e-22
3.3699999999999886e-18	5.92576112776e-22
3.3799999999999886e-18	5.92272983507e-22
3.3899999999999885e-18	5.91972538007e-22
3.3999999999999885e-18	5.91674753938e-22
3.4099999999999884e-18	5.91379609113e-22
3.4199999999999884e-18	5.91087081499e-22
3.4299999999999883e-18	5.90797149216e-22
3.4399999999999882e-18	5.90509790534e-22
3.449999999999988e-18	5.90224983878e-22
3.459999999999988e-18	5.89942707821e-22
3.4699999999999885e-18	5.8966294109e-22
3.4799999999999884e-18	5.89385662562e-22
3.489999999999988e-18	5.89110851266e-22
3.499999999999988e-18	5.8883848638e-22
3.509999999999988e-18	5.88568547231e-22
3.519999999999988e-18	5.88301013297e-22
3.529999999999988e-18	5.88035864204e-22
3.539999999999988e-18	5.87773079728e-22
3.549999999999988e-18	5.87512639791e-22
3.559999999999988e-18	5.87254524464e-22
3.569999999999988e-18	5.86998713966e-22
3.579999999999988e-18	5.86745188659e-22
3.589999999999988e-18	5.86493929054e-22
3.599999999999988e-18	5.86244915807e-22
3.609999999999988e-18	5.85998129718e-22
3.619999999999988e-18	5.85753551732e-22
3.629999999999988e-18	5.85511162937e-22
3.6399999999999876e-18	5.85270944566e-22
3.6499999999999875e-18	5.85032877992e-22
3.6599999999999875e-18	5.8479694473e-22
3.6699999999999874e-18	5.84563126438e-22
3.679999999999987e-18	5.84331404914e-22
3.689999999999987e-18	5.84101762094e-22
3.699999999999987e-18	5.83874180056e-22
3.709999999999987e-18	5.83648641015e-22
3.719999999999987e-18	5.83425127324e-22
3.729999999999987e-18	5.83203621473e-22
3.739999999999987e-18	5.82984106089e-22
3.749999999999987e-18	5.82766563935e-22
3.759999999999987e-18	5.82550977908e-22
3.769999999999987e-18	5.82337331039e-22
3.779999999999987e-18	5.82125606496e-22
3.789999999999987e-18	5.81915787575e-22
3.799999999999987e-18	5.81707857709e-22
3.809999999999987e-18	5.81501800458e-22
3.8199999999999866e-18	5.81297599515e-22
3.8299999999999866e-18	5.81095238704e-22
3.8399999999999865e-18	5.80894701975e-22
3.8499999999999864e-18	5.8069597341e-22
3.8599999999999864e-18	5.80499037215e-22
3.869999999999986e-18	5.80303877727e-22
3.879999999999986e-18	5.80110479406e-22
3.889999999999986e-18	5.79918826838e-22
3.899999999999986e-18	5.79728904734e-22
3.909999999999986e-18	5.7954069793e-22
3.919999999999986e-18	5.79354191382e-22
3.929999999999986e-18	5.79169370172e-22
3.939999999999986e-18	5.78986219502e-22
3.949999999999986e-18	5.78804724693e-22
3.959999999999986e-18	5.78624871189e-22
3.969999999999986e-18	5.7844664455e-22
3.979999999999986e-18	5.78270030459e-22
3.989999999999986e-18	5.78095014711e-22
3.999999999999986e-18	5.77921583223e-22
4.0099999999999856e-18	5.77749722024e-22
4.0199999999999855e-18	5.77579417262e-22
4.0299999999999855e-18	5.77410655197e-22
4.0399999999999854e-18	5.77243422204e-22
4.049999999999985e-18	5.7707770477e-22
4.059999999999985e-18	5.76913489496e-22
4.069999999999985e-18	5.76750763092e-22
4.079999999999985e-18	5.76589512382e-22
4.089999999999985e-18	5.76429724296e-22
4.099999999999985e-18	5.76271385876e-22
4.109999999999985e-18	5.76114484272e-22
4.119999999999985e-18	5.75959006741e-22
4.129999999999985e-18	5.75804940648e-22
4.139999999999985e-18	5.75652273462e-22
4.149999999999985e-18	5.75500992759e-22
4.159999999999985e-18	5.7535108622e-22
4.169999999999985e-18	5.75202541629e-22
4.179999999999985e-18	5.75055346872e-22
4.189999999999985e-18	5.74909489941e-22
4.1999999999999846e-18	5.74764958925e-22
4.2099999999999845e-18	5.74621742018e-22
4.2199999999999845e-18	5.7447982751e-22
4.2299999999999844e-18	5.74339203795e-22
4.239999999999984e-18	5.74199859362e-22
4.249999999999984e-18	5.74061782799e-22
4.259999999999984e-18	5.73924962792e-22
4.269999999999984e-18	5.73789388123e-22
4.279999999999984e-18	5.7365504767e-22
4.289999999999984e-18	5.73521930404e-22
4.299999999999984e-18	5.73390025393e-22
4.309999999999984e-18	5.73259321798e-22
4.319999999999984e-18	5.73129808872e-22
4.329999999999984e-18	5.73001475961e-22
4.339999999999984e-18	5.72874312501e-22
4.349999999999984e-18	5.7274830802e-22
4.359999999999984e-18	5.72623452136e-22
4.369999999999984e-18	5.72499734557e-22
4.379999999999984e-18	5.72377145079e-22
4.3899999999999836e-18	5.72255673584e-22
4.3999999999999835e-18	5.72135310046e-22
4.4099999999999835e-18	5.7201604452e-22
4.4199999999999834e-18	5.71897867152e-22
4.429999999999983e-18	5.7178076817e-22
4.439999999999983e-18	5.71664737888e-22
4.449999999999983e-18	5.71549766703e-22
4.459999999999983e-18	5.71435845096e-22
4.469999999999983e-18	5.71322963632e-22
4.479999999999983e-18	5.71211112955e-22
4.489999999999983e-18	5.71100283792e-22
4.499999999999983e-18	5.7099046695e-22
4.509999999999983e-18	5.70881653317e-22
4.519999999999983e-18	5.70773833861e-22
4.529999999999983e-18	5.70666999625e-22
4.539999999999983e-18	5.70561141735e-22
4.549999999999983e-18	5.70456251392e-22
4.559999999999983e-18	5.70352319872e-22
4.569999999999983e-18	5.70249338532e-22
4.5799999999999826e-18	5.701472988e-22
4.5899999999999825e-18	5.70046192181e-22
4.5999999999999825e-18	5.69946010255e-22
4.6099999999999824e-18	5.69846744676e-22
4.619999999999982e-18	5.69748387168e-22
4.629999999999982e-18	5.69650929532e-22
4.639999999999982e-18	5.69554363638e-22
4.649999999999982e-18	5.69458681428e-22
4.659999999999982e-18	5.69363874917e-22
4.669999999999982e-18	5.69269936186e-22
4.679999999999982e-18	5.69176857389e-22
4.689999999999982e-18	5.69084630749e-22
4.699999999999982e-18	5.68993248555e-22
4.709999999999982e-18	5.68902703168e-22
4.719999999999982e-18	5.68812987012e-22
4.729999999999982e-18	5.68724092581e-22
4.739999999999982e-18	5.68636012433e-22
4.749999999999982e-18	5.68548739195e-22
4.7599999999999816e-18	5.68462265555e-22
4.7699999999999816e-18	5.68376584269e-22
4.7799999999999815e-18	5.68291688155e-22
4.7899999999999814e-18	5.68207570096e-22
4.7999999999999814e-18	5.68124223037e-22
4.809999999999981e-18	5.68041639987e-22
4.819999999999981e-18	5.67959814015e-22
4.829999999999981e-18	5.67878738252e-22
4.839999999999981e-18	5.67798405891e-22
4.849999999999981e-18	5.67718810185e-22
4.859999999999981e-18	5.67639944446e-22
4.869999999999981e-18	5.67561802046e-22
4.879999999999981e-18	5.67484376417e-22
4.889999999999981e-18	5.67407661047e-22
4.899999999999981e-18	5.67331649485e-22
4.909999999999981e-18	5.67256335335e-22
4.919999999999981e-18	5.67181712259e-22
4.929999999999981e-18	5.67107773974e-22
4.939999999999981e-18	5.67034514256e-22
4.9499999999999806e-18	5.66961926933e-22
4.9599999999999805e-18	5.6689000589e-22
4.9699999999999805e-18	5.66818745068e-22
4.9799999999999804e-18	5.66748138458e-22
4.98999999999998e-18	5.66678180108e-22
